Test ID,Drop Point,Result
0,-9,-5.9952
1,-8.982,-2.99453
2,-8.964,-8.9997
3,-8.946,-3.00128
4,-8.928,-3.00025
5,-8.91,NULL
6,-8.892,NULL
7,-8.874,NULL
8,-8.856,-8.99966
9,-8.838,NULL
10,-8.82,NULL
11,-8.802,-9
12,-8.784,NULL
13,-8.766,NULL
14,-8.748,NULL
15,-8.73,-9
16,-8.712,NULL
17,-8.694,NULL
18,-8.676,NULL
19,-8.658,NULL
20,-8.64,-5.99941
21,-8.622,NULL
22,-8.604,-8.99989
23,-8.586,NULL
24,-8.568,-8.99987
25,-8.55,-8.99964
26,-8.532,-8.99996
27,-8.514,-8.99966
28,-8.496,-8.99969
29,-8.478,-8.9996
30,-8.46,-8.99977
31,-8.442,-9
32,-8.424,-8.98923
33,-8.406,-8.99966
34,-8.388,-9
35,-8.37,-8.99969
36,-8.352,-8.99973
37,-8.334,-8.99969
38,-8.316,NULL
39,-8.298,-8.99998
40,-8.28,-9
41,-8.262,-9
42,-8.244,-9
43,-8.226,NULL
44,-8.208,NULL
45,-8.19,NULL
46,-8.172,NULL
47,-8.154,-8.99973
48,-8.136,-8.99962
49,-8.118,NULL
50,-8.1,NULL
51,-8.082,NULL
52,-8.064,NULL
53,-8.046,-8.99966
54,-8.028,-8.99964
55,-8.01,-9
56,-7.992,-9
57,-7.974,-9
58,-7.956,-8.99958
59,-7.938,-8.99994
60,-7.92,-9
61,-7.902,NULL
62,-7.884,NULL
63,-7.866,NULL
64,-7.848,NULL
65,-7.83,NULL
66,-7.812,NULL
67,-7.794,-2.99423
68,-7.776,NULL
69,-7.758,NULL
70,-7.74,NULL
71,-7.722,NULL
72,-7.704,NULL
73,-7.686,-9
74,-7.668,-5.99908
75,-7.65,NULL
76,-7.632,-9
77,-7.614,-6.00419
78,-7.596,-2.99813
79,-7.578,-6.00105
80,-7.56,NULL
81,-7.542,NULL
82,-7.524,-9
83,-7.506,NULL
84,-7.488,-8.99952
85,-7.47,-6.00528
86,-7.452,-8.99966
87,-7.434,-8.99985
88,-7.416,-9
89,-7.398,-9
90,-7.38,-9
91,-7.362,-8.99968
92,-7.344,-9
93,-7.326,-9
94,-7.308,-9
95,-7.29,-9
96,-7.272,-9
97,-7.254,-8.98966
98,-7.236,-8.9995
99,-7.218,-8.9996
100,-7.2,-9
101,-7.182,NULL
102,-7.164,-8.99966
103,-7.146,-8.9996
104,-7.128,-9
105,-7.11,-8.98933
106,-7.092,-9
107,-7.074,-5.99416
108,-7.056,NULL
109,-7.038,NULL
110,-7.02,-9
111,-7.002,NULL
112,-6.984,-9
113,-6.966,-8.99969
114,-6.948,NULL
115,-6.93,-9
116,-6.912,-9
117,-6.894,-8.99966
118,-6.876,-8.99958
119,-6.858,NULL
120,-6.84,-8.99956
121,-6.822,-9
122,-6.804,-8.99969
123,-6.786,-9
124,-6.768,NULL
125,-6.75,-8.99964
126,-6.732,-9
127,-6.714,NULL
128,-6.696,NULL
129,-6.678,NULL
130,-6.66,-6.00649
131,-6.642,NULL
132,-6.624,NULL
133,-6.606,NULL
134,-6.588,-6.00019
135,-6.57,NULL
136,-6.552,NULL
137,-6.534,-9
138,-6.516,-8.99966
139,-6.498,NULL
140,-6.48,NULL
141,-6.462,-6.00297
142,-6.444,-5.99863
143,-6.426,NULL
144,-6.408,NULL
145,-6.39,NULL
146,-6.372,NULL
147,-6.354,-6.00446
148,-6.336,NULL
149,-6.318,-5.99994
150,-6.3,NULL
151,-6.282,NULL
152,-6.264,NULL
153,-6.246,-2.99785
154,-6.228,NULL
155,-6.21,NULL
156,-6.192,-6.00005
157,-6.174,NULL
158,-6.156,NULL
159,-6.138,NULL
160,-6.12,NULL
161,-6.102,NULL
162,-6.084,-9
163,-6.066,NULL
164,-6.048,NULL
165,-6.03,-9
166,-6.012,NULL
167,-5.994,NULL
168,-5.976,NULL
169,-5.958,NULL
170,-5.94,-3.00068
171,-5.922,NULL
172,-5.904,NULL
173,-5.886,NULL
174,-5.868,NULL
175,-5.85,NULL
176,-5.832,NULL
177,-5.814,NULL
178,-5.796,NULL
179,-5.778,NULL
180,-5.76,NULL
181,-5.742,NULL
182,-5.724,-8.99971
183,-5.706,NULL
184,-5.688,-8.9996
185,-5.67,NULL
186,-5.652,-5.99557
187,-5.634,NULL
188,-5.616,0.00160299
189,-5.598,-9
190,-5.58,NULL
191,-5.562,-5.99672
192,-5.544,-6.00119
193,-5.526,NULL
194,-5.508,NULL
195,-5.49,NULL
196,-5.472,NULL
197,-5.454,-5.99779
198,-5.436,NULL
199,-5.418,-2.99521
200,-5.4,NULL
201,-5.382,NULL
202,-5.364,NULL
203,-5.346,-6.00096
204,-5.328,NULL
205,-5.31,-9
206,-5.292,NULL
207,-5.274,NULL
208,-5.256,NULL
209,-5.238,NULL
210,-5.22,-3.00149
211,-5.202,NULL
212,-5.184,NULL
213,-5.166,NULL
214,-5.148,NULL
215,-5.13,NULL
216,-5.112,NULL
217,-5.094,-6.00347
218,-5.076,-5.99967
219,-5.058,NULL
220,-5.04,NULL
221,-5.022,-2.99175
222,-5.004,-6.00153
223,-4.986,-8.99998
224,-4.968,NULL
225,-4.95,-9
226,-4.932,NULL
227,-4.914,0.00433743
228,-4.896,NULL
229,-4.878,NULL
230,-4.86,-2.99976
231,-4.842,-2.99894
232,-4.824,NULL
233,-4.806,NULL
234,-4.788,NULL
235,-4.77,NULL
236,-4.752,NULL
237,-4.734,NULL
238,-4.716,NULL
239,-4.698,NULL
240,-4.68,NULL
241,-4.662,-2.9999
242,-4.644,NULL
243,-4.626,-2.99973
244,-4.608,NULL
245,-4.59,NULL
246,-4.572,NULL
247,-4.554,-2.99176
248,-4.536,-6.00772
249,-4.518,-6.00089
250,-4.5,NULL
251,-4.482,-0.000138449
252,-4.464,NULL
253,-4.446,NULL
254,-4.428,-2.9992
255,-4.41,NULL
256,-4.392,NULL
257,-4.374,NULL
258,-4.356,-5.99933
259,-4.338,-5.99514
260,-4.32,NULL
261,-4.302,NULL
262,-4.284,-9
263,-4.266,NULL
264,-4.248,NULL
265,-4.23,NULL
266,-4.212,NULL
267,-4.194,NULL
268,-4.176,NULL
269,-4.158,NULL
270,-4.14,NULL
271,-4.122,NULL
272,-4.104,NULL
273,-4.086,NULL
274,-4.068,NULL
275,-4.05,-3.004
276,-4.032,-6.00082
277,-4.014,0.000794436
278,-3.996,NULL
279,-3.978,NULL
280,-3.96,NULL
281,-3.942,NULL
282,-3.924,NULL
283,-3.906,NULL
284,-3.888,NULL
285,-3.87,NULL
286,-3.852,NULL
287,-3.834,-6.00007
288,-3.816,NULL
289,-3.798,-9
290,-3.78,NULL
291,-3.762,NULL
292,-3.744,NULL
293,-3.726,NULL
294,-3.708,-6.00665
295,-3.69,NULL
296,-3.672,-5.99251
297,-3.654,NULL
298,-3.636,NULL
299,-3.618,NULL
300,-3.6,NULL
301,-3.582,NULL
302,-3.564,NULL
303,-3.546,NULL
304,-3.528,NULL
305,-3.51,NULL
306,-3.492,NULL
307,-3.474,NULL
308,-3.456,-6.00799
309,-3.438,-3.00062
310,-3.42,NULL
311,-3.402,-2.99969
312,-3.384,NULL
313,-3.366,3.00197
314,-3.348,-3.00635
315,-3.33,NULL
316,-3.312,-2.99959
317,-3.294,NULL
318,-3.276,NULL
319,-3.258,-3.00498
320,-3.24,NULL
321,-3.222,NULL
322,-3.204,NULL
323,-3.186,NULL
324,-3.168,NULL
325,-3.15,NULL
326,-3.132,-2.99414
327,-3.114,0.00124089
328,-3.096,NULL
329,-3.078,NULL
330,-3.06,-5.99952
331,-3.042,0.00558919
332,-3.024,NULL
333,-3.006,-6.00059
334,-2.988,NULL
335,-2.97,0.00193476
336,-2.952,NULL
337,-2.934,NULL
338,-2.916,NULL
339,-2.898,-3.00046
340,-2.88,NULL
341,-2.862,-5.9921
342,-2.844,NULL
343,-2.826,NULL
344,-2.808,-6.0066
345,-2.79,-2.99949
346,-2.772,NULL
347,-2.754,NULL
348,-2.736,NULL
349,-2.718,NULL
350,-2.7,-0.000107709
351,-2.682,NULL
352,-2.664,NULL
353,-2.646,NULL
354,-2.628,-6.00238
355,-2.61,-5.99966
356,-2.592,NULL
357,-2.574,NULL
358,-2.556,0.00143521
359,-2.538,-6.0047
360,-2.52,NULL
361,-2.502,-3.00077
362,-2.484,NULL
363,-2.466,-0.000100178
364,-2.448,-5.99177
365,-2.43,NULL
366,-2.412,-2.99921
367,-2.394,-2.99994
368,-2.376,NULL
369,-2.358,NULL
370,-2.34,3.00232
371,-2.322,-3.00185
372,-2.304,NULL
373,-2.286,NULL
374,-2.268,NULL
375,-2.25,NULL
376,-2.232,NULL
377,-2.214,NULL
378,-2.196,3.00706
379,-2.178,NULL
380,-2.16,-0.000852815
381,-2.142,NULL
382,-2.124,-3.00246
383,-2.106,-3.00052
384,-2.088,NULL
385,-2.07,NULL
386,-2.052,NULL
387,-2.034,NULL
388,-2.016,-3.00158
389,-1.998,NULL
390,-1.98,NULL
391,-1.962,NULL
392,-1.944,NULL
393,-1.926,-2.99234
394,-1.908,NULL
395,-1.89,NULL
396,-1.872,-3.0012
397,-1.854,NULL
398,-1.836,NULL
399,-1.818,0.0068337
400,-1.8,-3.0023
401,-1.782,NULL
402,-1.764,NULL
403,-1.746,NULL
404,-1.728,NULL
405,-1.71,NULL
406,-1.692,NULL
407,-1.674,NULL
408,-1.656,NULL
409,-1.638,NULL
410,-1.62,0.000239106
411,-1.602,2.99856
412,-1.584,0.00626015
413,-1.566,3.00672
414,-1.548,0.00444793
415,-1.53,NULL
416,-1.512,-9
417,-1.494,0.00265324
418,-1.476,3.00011
419,-1.458,NULL
420,-1.44,NULL
421,-1.422,NULL
422,-1.404,NULL
423,-1.386,NULL
424,-1.368,0.000220411
425,-1.35,NULL
426,-1.332,NULL
427,-1.314,-5.99995
428,-1.296,NULL
429,-1.278,NULL
430,-1.26,-2.99778
431,-1.242,NULL
432,-1.224,NULL
433,-1.206,NULL
434,-1.188,NULL
435,-1.17,NULL
436,-1.152,NULL
437,-1.134,0.000806012
438,-1.116,-3.00508
439,-1.098,0.00134895
440,-1.08,NULL
441,-1.062,-5.23954e-006
442,-1.044,0.00224411
443,-1.026,NULL
444,-1.008,-0.00859518
445,-0.99,-2.99972
446,-0.972,-3.00083
447,-0.954,-3.0003
448,-0.936,-5.99989
449,-0.918,NULL
450,-0.900001,NULL
451,-0.882,NULL
452,-0.864,NULL
453,-0.846,NULL
454,-0.828,3.84183e-005
455,-0.809999,NULL
456,-0.792,NULL
457,-0.774,NULL
458,-0.756,NULL
459,-0.738,NULL
460,-0.72,NULL
461,-0.702,NULL
462,-0.684,NULL
463,-0.666,-3.00029
464,-0.648001,NULL
465,-0.63,NULL
466,-0.612,NULL
467,-0.594,0.00626842
468,-0.576,-0.000169132
469,-0.558,-0.00532098
470,-0.54,0.000247412
471,-0.522,NULL
472,-0.504,NULL
473,-0.486,-0.000347187
474,-0.467999,-3.00159
475,-0.45,NULL
476,-0.432,-2.99757
477,-0.414,NULL
478,-0.396,0.000947881
479,-0.378,NULL
480,-0.360001,NULL
481,-0.342,-3.00526
482,-0.324,0.00283921
483,-0.306,NULL
484,-0.288,3.00073
485,-0.27,-3.00448
486,-0.252,NULL
487,-0.234,NULL
488,-0.216,NULL
489,-0.198,-0.0001638
490,-0.18,-3.00335
491,-0.162,NULL
492,-0.144,NULL
493,-0.126,NULL
494,-0.108,NULL
495,-0.0900002,NULL
496,-0.0720005,3.00673
497,-0.0539999,NULL
498,-0.0360003,NULL
499,-0.0179996,NULL
500,0,NULL
501,0.0179996,NULL
502,0.0359993,NULL
503,0.0540009,5.99891
504,0.0720005,NULL
505,0.0900002,0.00131865
506,0.108,-2.99928
507,0.126,NULL
508,0.144,NULL
509,0.162,-2.99487
510,0.18,6.00373
511,0.198,3.00482
512,0.216001,NULL
513,0.234,0.000309666
514,0.252,NULL
515,0.27,3.00824
516,0.287999,3.00182
517,0.306001,NULL
518,0.324,6.00059
519,0.342,NULL
520,0.36,NULL
521,0.378,-3.00808
522,0.396,-3.00035
523,0.414,NULL
524,0.432,NULL
525,0.45,-0.000428231
526,0.468,NULL
527,0.486,0.00291967
528,0.504,NULL
529,0.521999,NULL
530,0.539999,-0.00366167
531,0.558001,NULL
532,0.576,0.000454261
533,0.594,2.99836
534,0.612,3.00228
535,0.63,NULL
536,0.648001,NULL
537,0.666,NULL
538,0.684,NULL
539,0.702,NULL
540,0.72,0.000233773
541,0.738,NULL
542,0.756,-0.000261483
543,0.774,NULL
544,0.792001,NULL
545,0.81,NULL
546,0.828,NULL
547,0.846,NULL
548,0.863999,NULL
549,0.882,NULL
550,0.900001,NULL
551,0.918,NULL
552,0.936,NULL
553,0.954,NULL
554,0.972,2.99997
555,0.99,NULL
556,1.008,NULL
557,1.026,NULL
558,1.044,NULL
559,1.062,NULL
560,1.08,NULL
561,1.098,NULL
562,1.116,2.99924
563,1.134,NULL
564,1.152,NULL
565,1.17,NULL
566,1.188,NULL
567,1.206,NULL
568,1.224,NULL
569,1.242,NULL
570,1.26,NULL
571,1.278,2.99905
572,1.296,NULL
573,1.314,-0.00812032
574,1.332,NULL
575,1.35,NULL
576,1.368,NULL
577,1.386,NULL
578,1.404,5.99783
579,1.422,NULL
580,1.44,NULL
581,1.458,NULL
582,1.476,-3.00359
583,1.494,-3.00341
584,1.512,3.00174
585,1.53,2.99778
586,1.548,NULL
587,1.566,NULL
588,1.584,NULL
589,1.602,-3.00631
590,1.62,-0.000153713
591,1.638,NULL
592,1.656,NULL
593,1.674,2.9996
594,1.692,NULL
595,1.71,NULL
596,1.728,NULL
597,1.746,NULL
598,1.764,NULL
599,1.782,NULL
600,1.8,NULL
601,1.818,0.0013599
602,1.836,NULL
603,1.854,-0.000561399
604,1.872,0.00654248
605,1.89,NULL
606,1.908,NULL
607,1.926,2.99471
608,1.944,NULL
609,1.962,-0.00117922
610,1.98,NULL
611,1.998,NULL
612,2.016,-0.00274099
613,2.034,3.00817
614,2.052,NULL
615,2.07,NULL
616,2.088,NULL
617,2.106,NULL
618,2.124,0.000298561
619,2.142,NULL
620,2.16,0.0014079
621,2.178,NULL
622,2.196,-3.00161
623,2.214,NULL
624,2.232,NULL
625,2.25,NULL
626,2.268,-2.99955
627,2.286,6.00014
628,2.304,NULL
629,2.322,2.9913
630,2.34,NULL
631,2.358,NULL
632,2.376,NULL
633,2.394,NULL
634,2.412,-0.00393521
635,2.43,NULL
636,2.448,NULL
637,2.466,NULL
638,2.484,2.99987
639,2.502,NULL
640,2.52,NULL
641,2.538,5.9955
642,2.556,NULL
643,2.574,NULL
644,2.592,NULL
645,2.61,2.99612
646,2.628,-0.00650569
647,2.646,3
648,2.664,NULL
649,2.682,NULL
650,2.7,NULL
651,2.718,6.00302
652,2.736,0.00716715
653,2.754,NULL
654,2.772,NULL
655,2.79,NULL
656,2.808,NULL
657,2.826,-3.00056
658,2.844,-3.00377
659,2.862,6.00509
660,2.88,6.00433
661,2.898,NULL
662,2.916,NULL
663,2.934,NULL
664,2.952,NULL
665,2.97,-0.000230455
666,2.988,NULL
667,3.006,NULL
668,3.024,NULL
669,3.042,NULL
670,3.06,NULL
671,3.078,-0.000404172
672,3.096,NULL
673,3.114,NULL
674,3.132,NULL
675,3.15,NULL
676,3.168,3.00827
677,3.186,NULL
678,3.204,NULL
679,3.222,NULL
680,3.24,NULL
681,3.258,NULL
682,3.276,3.00011
683,3.294,2.99632
684,3.312,NULL
685,3.33,5.99244
686,3.348,NULL
687,3.366,NULL
688,3.384,2.99797
689,3.402,NULL
690,3.42,NULL
691,3.438,-0.0038325
692,3.456,NULL
693,3.474,NULL
694,3.492,NULL
695,3.51,NULL
696,3.528,NULL
697,3.546,NULL
698,3.564,NULL
699,3.582,NULL
700,3.6,NULL
701,3.618,NULL
702,3.636,NULL
703,3.654,NULL
704,3.672,NULL
705,3.69,NULL
706,3.708,NULL
707,3.726,3.00595
708,3.744,NULL
709,3.762,NULL
710,3.78,2.99927
711,3.798,9
712,3.816,8.99986
713,3.834,3.0007
714,3.852,NULL
715,3.87,8.99964
716,3.888,NULL
717,3.906,3.00714
718,3.924,5.99993
719,3.942,6.00644
720,3.96,6.00674
721,3.978,NULL
722,3.996,-0.00445977
723,4.014,0.00134706
724,4.032,NULL
725,4.05,NULL
726,4.068,NULL
727,4.086,NULL
728,4.104,NULL
729,4.122,NULL
730,4.14,2.999
731,4.158,5.99946
732,4.176,NULL
733,4.194,NULL
734,4.212,NULL
735,4.23,NULL
736,4.248,2.99324
737,4.266,NULL
738,4.284,NULL
739,4.302,NULL
740,4.32,NULL
741,4.338,NULL
742,4.356,NULL
743,4.374,NULL
744,4.392,NULL
745,4.41,NULL
746,4.428,NULL
747,4.446,5.99715
748,4.464,6.00208
749,4.482,NULL
750,4.5,3.00089
751,4.518,5.99286
752,4.536,3.00124
753,4.554,NULL
754,4.572,NULL
755,4.59,NULL
756,4.608,NULL
757,4.626,NULL
758,4.644,-0.00144651
759,4.662,NULL
760,4.68,NULL
761,4.698,NULL
762,4.716,NULL
763,4.734,NULL
764,4.752,NULL
765,4.77,NULL
766,4.788,NULL
767,4.806,NULL
768,4.824,2.9954
769,4.842,NULL
770,4.86,NULL
771,4.878,NULL
772,4.896,6.00093
773,4.914,NULL
774,4.932,NULL
775,4.95,NULL
776,4.968,NULL
777,4.986,NULL
778,5.004,NULL
779,5.022,NULL
780,5.04,NULL
781,5.058,NULL
782,5.076,NULL
783,5.094,6.00153
784,5.112,NULL
785,5.13,-0.00079479
786,5.148,2.99476
787,5.166,3.00232
788,5.184,NULL
789,5.202,NULL
790,5.22,NULL
791,5.238,NULL
792,5.256,NULL
793,5.274,NULL
794,5.292,8.99985
795,5.31,5.99799
796,5.328,NULL
797,5.346,2.99267
798,5.364,NULL
799,5.382,NULL
800,5.4,NULL
801,5.418,NULL
802,5.436,NULL
803,5.454,NULL
804,5.472,NULL
805,5.49,NULL
806,5.508,NULL
807,5.526,NULL
808,5.544,NULL
809,5.562,2.99315
810,5.58,NULL
811,5.598,NULL
812,5.616,3.00688
813,5.634,NULL
814,5.652,8.99968
815,5.67,NULL
816,5.688,2.99927
817,5.706,5.99676
818,5.724,NULL
819,5.742,8.99966
820,5.76,NULL
821,5.778,NULL
822,5.796,NULL
823,5.814,NULL
824,5.832,6.00144
825,5.85,NULL
826,5.868,NULL
827,5.886,NULL
828,5.904,NULL
829,5.922,3.00079
830,5.94,NULL
831,5.958,NULL
832,5.976,NULL
833,5.994,NULL
834,6.012,NULL
835,6.03,8.99966
836,6.048,NULL
837,6.066,NULL
838,6.084,9
839,6.102,NULL
840,6.12,NULL
841,6.138,NULL
842,6.156,NULL
843,6.174,NULL
844,6.192,8.99969
845,6.21,5.99835
846,6.228,NULL
847,6.246,NULL
848,6.264,8.99969
849,6.282,3.00008
850,6.3,NULL
851,6.318,9
852,6.336,NULL
853,6.354,6.0026
854,6.372,NULL
855,6.39,3.00571
856,6.408,NULL
857,6.426,NULL
858,6.444,9
859,6.462,NULL
860,6.48,NULL
861,6.498,8.99964
862,6.516,NULL
863,6.534,6.00136
864,6.552,2.99333
865,6.57,2.99475
866,6.588,NULL
867,6.606,2.99652
868,6.624,NULL
869,6.642,NULL
870,6.66,NULL
871,6.678,NULL
872,6.696,NULL
873,6.714,5.9935
874,6.732,9
875,6.75,8.99998
876,6.768,NULL
877,6.786,9
878,6.804,9
879,6.822,8.99968
880,6.84,9
881,6.858,NULL
882,6.876,9
883,6.894,8.99962
884,6.912,8.99977
885,6.93,9
886,6.948,NULL
887,6.966,9
888,6.984,NULL
889,7.002,NULL
890,7.02,NULL
891,7.038,2.99639
892,7.056,NULL
893,7.074,5.99492
894,7.092,NULL
895,7.11,9
896,7.128,9
897,7.146,9
898,7.164,8.99998
899,7.182,8.99998
900,7.2,9
901,7.218,9
902,7.236,9
903,7.254,9
904,7.272,9
905,7.29,9
906,7.308,9
907,7.326,8.99994
908,7.344,9
909,7.362,8.99955
910,7.38,9
911,7.398,8.99958
912,7.416,9
913,7.434,8.98956
914,7.452,9
915,7.47,9
916,7.488,6.00332
917,7.506,9
918,7.524,9
919,7.542,NULL
920,7.56,NULL
921,7.578,9
922,7.596,6.00208
923,7.614,9
924,7.632,5.99365
925,7.65,NULL
926,7.668,6.00139
927,7.686,5.99421
928,7.704,NULL
929,7.722,6.00035
930,7.74,3.00526
931,7.758,2.99945
932,7.776,NULL
933,7.794,NULL
934,7.812,NULL
935,7.83,NULL
936,7.848,NULL
937,7.866,5.99989
938,7.884,NULL
939,7.902,NULL
940,7.92,9
941,7.938,9
942,7.956,9
943,7.974,9
944,7.992,8.99968
945,8.01,8.99969
946,8.028,9
947,8.046,NULL
948,8.064,NULL
949,8.082,NULL
950,8.1,NULL
951,8.118,NULL
952,8.136,9
953,8.154,9
954,8.172,NULL
955,8.19,6.00497
956,8.208,NULL
957,8.226,8.99968
958,8.244,5.99461
959,8.262,NULL
960,8.28,8.99954
961,8.298,8.99952
962,8.316,9
963,8.334,8.99989
964,8.352,9
965,8.37,9
966,8.388,9
967,8.406,9
968,8.424,8.99966
969,8.442,8.99976
970,8.46,8.99968
971,8.478,9
972,8.496,9
973,8.514,8.99962
974,8.532,NULL
975,8.55,9
976,8.568,8.99998
977,8.586,NULL
978,8.604,2.99949
979,8.622,NULL
980,8.64,NULL
981,8.658,NULL
982,8.676,NULL
983,8.694,NULL
984,8.712,NULL
985,8.73,NULL
986,8.748,NULL
987,8.766,NULL
988,8.784,6.00165
989,8.802,2.9955
990,8.82,NULL
991,8.838,NULL
992,8.856,NULL
993,8.874,NULL
994,8.892,NULL
995,8.91,NULL
996,8.928,NULL
997,8.946,NULL
998,8.964,9
999,8.982,2.99762
